 	Area	Mean	StdDev	Min	Max	Major	Minor	Angle	Feret	IntDen	Median	RawIntDen	FeretX	FeretY	FeretAngle	MinFeret
1	21.2528	2602.6848	349.6564	2055	3469	5.2143	5.1896	45.1159	5.3727	55314.3064	2499	3451160.0000	499	58	55.5610	5.1906
2	31.0778	2659.2362	385.3714	2042	3679	6.3073	6.2736	22.8635	6.4467	82643.1954	2545	5156259.0000	24	66	160.4976	6.3300
3	22.6472	2564.5952	324.1222	2047	3367	5.3870	5.3527	4.3299	5.5198	58080.9032	2476	3623773.0000	967	106	36.6071	5.3172
4	30.9816	2977.6363	433.2952	2050	3972	6.3058	6.2557	2.6950	6.4467	92252.0198	2877	5755771.0000	886	145	19.5024	6.2034
5	29.0262	2614.3689	374.4308	2049	3488	6.1012	6.0574	49.2732	6.2344	75885.3058	2537	4734622.0000	409	164	23.9625	6.0768
6	26.8465	2504.3260	333.1498	2043	3323	5.8557	5.8374	132.7390	6.0145	67232.3119	2424	4194746.0000	33	165	130.7321	5.8236
7	33.9468	2712.6525	398.1904	2043	3761	6.5915	6.5572	169.3847	6.7432	92085.7640	2591	5745398.0000	285	338	140.3322	6.5832
8	13.2229	2453.8885	264.9066	2042	3119	4.1177	4.0886	119.4920	4.2557	32447.4930	2375	2024458.0000	599	342	120.3791	4.0512
9	32.4722	2855.2315	422.9445	2050	3888	6.4543	6.4058	138.3783	6.6027	92715.6703	2743	5784699.0000	634	400	147.5288	6.4566
10	18.9929	2498.0726	310.0104	2041	3310	4.9268	4.9083	76.7932	5.0640	47445.5820	2403	2960216.0000	501	401	143.1301	4.9374
11	24.9071	2681.7336	282.5731	2042	3478	5.6821	5.5812	109.4472	5.8099	66794.2416	2627	4167414.0000	101	430	101.3099	5.6398
12	34.2032	3050.2385	440.4048	2041	4044	6.6252	6.5732	110.4230	6.7622	104327.9306	2941	6509209.0000	816	488	128.1572	6.5832
13	33.3537	2996.3671	449.3680	2043	4235	6.5341	6.4993	96.2417	6.6895	99940.0314	2875	6235440.0000	860	547	119.4759	6.4566
14	26.3496	2351.5335	339.3744	1799	3158	5.8113	5.7731	105.1187	5.9516	61961.9892	2279	3865921.0000	76	633	150.7086	5.8188
15	22.5350	2239.5825	287.2049	1847	2973	5.3683	5.3448	131.9280	5.5024	50469.0074	2169	3148853.0000	254	726	113.0255	5.3172
16	28.4973	2319.5276	317.2579	1878	3132	6.0286	6.0187	39.1093	6.1737	66100.3365	2236	4124120.0000	127	811	61.8584	6.0768
17	16.7490	2085.9589	227.3049	1753	2613	4.6285	4.6074	170.0308	4.7724	34937.7075	2017	2179827.0000	514	817	111.8014	4.5576
18	32.1517	2405.3485	346.8163	1913	3230	6.4211	6.3753	78.8836	6.5662	77335.9287	2308	4825129.0000	242	868	123.9965	6.3300
19	21.3329	2056.1217	239.2948	1721	2615	5.2147	5.2087	46.0894	5.3831	43863.0929	1986	2736698.0000	823	972	41.1859	5.1906
20	26.7663	2230.2251	290.6445	1854	2929	5.8447	5.8309	73.0898	6.0025	59694.9451	2151	3724476.0000	239	988	62.3540	5.8236
21	33.7063	2363.2416	325.6478	1928	3235	6.5596	6.5426	39.3026	6.7301	79656.2331	2274	4969897.0000	517	1021	73.6105	6.4566
22	22.4068	2463.5508	316.9112	2046	3219	5.3494	5.3332	124.8661	5.4966	55200.2530	2373	3444044.0000	113	55	141.5463	5.3172
23	29.0904	3739.1928	662.5278	2041	5066	6.0869	6.0850	30.5843	6.2690	108774.4433	3642	6786635.0000	891	69	136.6366	6.0768
24	29.8917	2580.5732	346.6326	2041	3455	6.1976	6.1410	178.2556	6.3275	77137.8258	2495	4812769.0000	27	122	19.8852	6.0768
25	28.3371	3795.6374	687.0202	2042	5204	6.0296	5.9837	100.5563	6.1737	107557.1683	3715	6710687.0000	741	106	151.8584	5.9502
26	14.4250	2530.3500	279.4861	2045	3303	4.2907	4.2805	46.3939	4.4796	36500.2201	2448	2277315.0000	228	218	42.7094	4.3044
27	36.4471	4131.1522	848.5419	2042	5880	6.8297	6.7948	95.9988	6.9918	150568.4667	3961	9394240.0000	913	222	132.0643	6.8364
28	23.9294	3191.0965	481.8231	2041	4413	5.5325	5.5071	55.8113	5.6900	76361.0894	3072	4764307.0000	452	240	147.7244	5.4438
29	30.6130	3545.4241	600.9282	2043	4904	6.2487	6.2378	84.1807	6.4068	108536.0306	3423	6771760.0000	632	255	150.3955	6.2034
30	23.2563	3491.4873	557.8109	2051	4562	5.4517	5.4315	165.0732	5.6077	81198.9194	3429	5066148.0000	748	256	118.3008	5.4438
31	25.1636	2751.8981	367.0540	2042	3598	5.6687	5.6520	91.2098	5.8250	69247.5441	2668	4320480.0000	231	298	47.6425	5.6970
32	24.5064	3270.0517	490.8413	2043	4397	5.5995	5.5723	102.0791	5.7586	80137.2577	3186	4999909.0000	458	287	123.3407	5.5704
33	31.8632	3284.8124	520.8325	2044	4559	6.3798	6.3591	57.0222	6.5356	104664.4812	3145	6530207.0000	354	357	58.4652	6.3300
34	44.9738	4100.6272	1007.7097	2042	6082	7.6337	7.5013	102.1014	7.7929	184420.9838	4024	11506360.0000	770	366	43.0251	7.4694
35	22.3908	2564.4875	314.5110	2059	3359	5.3536	5.3252	166.9470	5.4966	57420.8167	2474	3582589.0000	168	344	128.4537	5.3172
36	20.0667	3250.5679	484.4889	2051	4368	5.1122	4.9978	124.2895	5.2688	65228.2830	3178	4069711.0000	502	352	125.2176	5.0640
37	33.0332	3509.6220	651.4101	2035	4993	6.7053	6.2726	125.6677	7.0226	115933.9721	3386	7233331.0000	528	385	123.9765	6.3300
38	17.0856	2818.3471	327.3048	2042	3537	4.6718	4.6564	32.5513	4.8208	48153.0786	2741	3004358.0000	280	413	150.0685	4.6842
39	30.3565	2841.6473	393.2955	2041	3883	6.2393	6.1948	58.5363	6.3868	86262.5964	2740	5382080.0000	186	497	39.3693	6.2034
40	29.5391	3128.0331	454.6856	2046	4208	6.1755	6.0902	111.0937	6.3452	92399.3789	3034	5764965.0000	298	461	118.6105	6.0768
41	27.7120	3146.4401	471.1672	2045	4213	5.9561	5.9240	104.0902	6.1097	87194.0487	3042	5440195.0000	427	484	124.0193	5.9502
42	23.0158	2918.9262	389.5348	2042	3934	5.4534	5.3737	103.5581	5.6049	67181.5360	2819	4191578.0000	321	512	108.4349	5.3172
43	28.3851	2727.8944	366.4728	2059	3662	6.0512	5.9725	81.4159	6.1879	77431.6464	2622	4831101.0000	174	572	59.2373	5.9502
44	20.5796	3681.3185	619.9923	2041	4881	5.1366	5.1012	108.2342	5.2885	75760.1451	3598	4726813.0000	852	573	42.0892	5.0640
45	19.4417	3093.3157	415.3032	2041	4019	4.9919	4.9588	33.7623	5.1410	60139.1700	3028	3752192.0000	687	584	37.9987	4.9374
46	21.0765	2474.4837	303.7355	2044	3226	5.1966	5.1640	146.9125	5.3428	52153.4110	2370	3253946.0000	163	626	143.6732	5.1906
47	35.3732	2823.5415	426.3475	2042	3968	6.7294	6.6928	90.3094	6.8657	99877.7796	2688	6231556.0000	256	705	67.2176	6.7098
48	19.1371	2628.1533	302.7866	2046	3319	4.9434	4.9290	59.0162	5.0956	50295.2987	2537	3138015.0000	412	696	26.5651	4.9374
49	19.8904	2762.1700	337.5160	2042	3495	5.0569	5.0081	91.2316	5.2137	54940.7478	2668	3427853.0000	490	686	150.9454	4.9374
50	23.3364	3648.7163	659.7361	2041	4875	5.5482	5.3554	104.4887	5.7125	85147.8829	3630	5312531.0000	927	750	102.8043	5.4438
51	17.8389	2796.9039	336.0026	2041	3553	4.7836	4.7481	91.5136	4.9309	49893.6275	2698	3112954.0000	625	848	119.1975	4.6842
52	12.0849	2840.9589	305.2900	2045	3418	3.9324	3.9128	178.4803	4.0769	34332.7563	2778	2142083.0000	730	850	126.1582	3.9246
53	35.5816	4002.9338	791.1507	2043	5576	6.7430	6.7186	80.4190	6.9261	142430.7487	3884	8886513.0000	832	920	59.2159	6.7098
54	29.6032	3631.2631	634.3700	2041	4931	6.1644	6.1145	167.8483	6.3072	107497.1604	3518	6706943.0000	674	15	128.4802	6.0768
55	36.1426	3556.1517	622.2869	2041	4906	6.7934	6.7739	143.4796	6.9400	128528.4285	3400	8019122.0000	939	46	104.7968	6.8364
56	35.1008	3818.6849	707.8966	2046	5297	6.7066	6.6639	100.9067	6.8843	134038.7346	3664	8362920.0000	739	62	122.2288	6.7098
57	30.5008	3293.4088	530.8697	2050	4473	6.2375	6.2260	162.9446	6.3980	100451.5888	3172	6267357.0000	80	104	27.0721	6.2034
58	26.5580	3258.0960	512.6106	2043	4394	5.8407	5.7895	11.2080	5.9985	86528.4165	3153	5398665.0000	14	162	44.1449	5.8236
59	12.5497	2968.9834	357.8997	2044	3648	4.0122	3.9826	74.1371	4.1528	37259.9191	2908	2324714.0000	682	264	52.4314	4.0512
60	34.9245	3796.4644	696.9408	2049	5289	6.6913	6.6456	10.3057	6.8247	132589.4419	3621	8272496.0000	350	294	40.4860	6.5832
61	14.0403	3172.6084	432.5697	2046	4058	4.2429	4.2134	175.2797	4.3947	44544.3842	3080	2779205.0000	608	299	131.4965	4.1778
62	26.6862	3709.9988	653.0865	2048	5023	5.8411	5.8170	6.0995	6.0039	99005.7421	3617	6177148.0000	783	337	132.4362	5.8236
63	20.5636	3282.6773	491.1078	2046	4324	5.1218	5.1119	27.4132	5.2885	67503.6455	3182	4211675.0000	195	449	42.0892	5.0640
64	46.4805	4016.7334	1067.6439	2025	6089	7.7134	7.6725	87.0040	7.8991	186699.6000	4013	11648527.0000	784	529	68.3691	7.7226
65	30.7092	3612.9796	627.7603	2041	4965	6.2753	6.2308	41.2298	6.4280	110951.5558	3489	6922469.0000	76	554	32.1250	6.2664
66	31.0938	3493.9608	582.7762	2049	4780	6.3070	6.2771	31.0009	6.4703	108640.5956	3388	6778284.0000	11	559	30.5792	6.3300
67	41.4958	3992.0548	1075.0779	2036	6006	7.2786	7.2588	113.8931	7.4769	165653.6184	4015	10335430.0000	777	597	118.3008	7.2162
68	22.9357	3443.9567	548.7428	2050	4568	5.4145	5.3934	34.9102	5.5618	78989.5591	3364	4928302.0000	232	660	41.3086	5.4438
69	20.7559	3565.9143	596.0365	2050	4715	5.1600	5.1216	71.3465	5.3006	74013.8584	3497	4617859.0000	438	661	40.1560	5.0640
70	28.1287	3574.6986	746.2136	1779	5087	6.0173	5.9519	139.6581	6.1528	100551.5859	3512	6273596.0000	310	634	126.6341	5.9502
71	35.0366	3963.7571	814.0796	2042	5594	6.7251	6.6334	101.7925	6.8983	138876.7569	3862	8664773.0000	788	717	132.7688	6.7098
72	21.5733	3651.4034	625.3607	2041	4805	5.2545	5.2275	109.7675	5.4187	78772.9762	3582	4914789.0000	479	762	127.4054	5.1906
73	24.4744	3741.1100	679.0357	2042	5099	5.5935	5.5711	158.8577	5.7586	91561.2882	3693	5712675.0000	614	813	146.6593	5.5704
74	31.6868	3691.0941	750.1128	2040	5178	6.5708	6.1400	55.8353	6.7858	116959.1386	3652	7297293.0000	690	948	53.3439	6.2034
75	26.6381	3614.9434	624.1315	2046	4803	5.8453	5.8024	108.2864	5.9758	96295.2584	3576	6008036.0000	591	919	126.3844	5.8236
76	33.6903	3361.0618	551.5395	2045	4609	6.5742	6.5249	78.8227	6.7110	113235.2367	3221	7064952.0000	131	982	54.2110	6.5832
77	24.9231	3449.5672	611.0987	2041	4708	5.8462	5.4280	70.6187	6.0900	85974.0489	3407	5364077.0000	672	997	69.3045	5.4438
78	32.3119	3682.3497	653.8762	2043	5145	6.4465	6.3819	90.3223	6.5845	118983.8272	3570	7423617.0000	456	958	127.9716	6.4481
79	17.3741	2793.4806	313.5754	2050	3458	4.7186	4.6881	96.8526	4.8721	48534.1382	2697	3028133.0000	47	977	114.5672	4.6842
80	26.6381	3680.6474	635.0639	2050	4946	5.8447	5.8030	5.4888	5.9758	98045.4880	3598	6117236.0000	570	41	36.3844	5.8236
81	35.0366	3948.0746	770.4092	2041	5561	6.6977	6.6605	142.0142	6.8622	138327.2939	3799	8630491.0000	758	25	142.4959	6.7098
82	31.4625	4047.5293	799.2704	2045	5686	6.3414	6.3171	59.8434	6.5073	127345.2284	3908	7945300.0000	354	152	37.0928	6.3300
83	30.1161	3697.4476	788.5511	2042	5140	6.3415	6.0467	58.5397	6.5356	111352.8103	3708	6947504.0000	973	194	58.4652	6.0768
84	20.6277	3432.1142	534.6335	2041	4499	5.1445	5.1053	43.3531	5.3187	70796.6416	3352	4417131.0000	194	207	38.2338	5.1906
85	45.7432	3975.7575	1137.3664	2041	6231	7.7228	7.5416	22.3272	7.8961	181863.7894	4067	11346812.0000	931	249	48.9005	7.5960
86	23.3364	3785.2253	661.6101	2044	5011	5.4754	5.4266	54.9586	5.6220	88333.5090	3726	5511288.0000	250	390	35.8377	5.4438
87	33.4018	4083.7020	811.1307	2044	5696	6.5521	6.4908	69.4783	6.6847	136403.0671	3957	8510435.0000	140	442	37.3039	6.4566
88	15.4988	3353.4054	495.3847	2041	4243	4.4520	4.4326	108.8146	4.5892	51973.8522	3296	3242743.0000	919	442	114.4440	4.4310
89	45.6310	4300.5163	1336.6083	2041	6879	7.6922	7.5530	51.4562	7.8798	196236.7964	4436	12243570.0000	706	521	66.3179	7.5960
90	42.5376	4228.3934	1332.5614	2041	6717	7.3695	7.3493	65.4732	7.5474	179865.8351	4393	11222156.0000	622	576	67.3062	7.4302
91	27.4074	3900.6316	1016.3940	2041	5565	5.9695	5.8458	119.0988	6.1294	106906.3297	4068	6670080.0000	704	557	141.7098	5.9502
92	23.0639	4012.9951	805.5753	2044	5388	5.4685	5.3700	76.1635	5.6220	92555.4089	4000	5774700.0000	464	624	54.1623	5.4438
93	31.7990	3877.6084	748.6454	2041	5399	6.3984	6.3278	110.2762	6.5503	123304.2337	3784	7693175.0000	13	610	131.0818	6.3300
94	39.7648	4201.7517	1216.8596	2041	6422	7.2723	6.9620	43.8649	7.4188	167081.9468	4314	10424546.0000	671	694	53.3257	7.0577
95	23.1921	3752.7775	699.7106	2042	5073	5.4817	5.3869	94.2044	5.6191	87034.9573	3734	5430269.0000	70	661	104.3493	5.4438
96	30.6130	3956.2927	764.4384	2047	5539	6.2660	6.2205	96.7238	6.4180	121113.9464	3880	7556519.0000	927	701	104.8586	6.2034
97	31.0938	4060.3304	1011.1638	2037	5796	6.3652	6.2197	69.6054	6.5405	126251.1907	4115	7877041.0000	525	776	75.4258	6.3272
98	30.1482	3704.9904	654.4903	2041	5014	6.2399	6.1517	88.0310	6.3717	111698.7371	3617	6969087.0000	48	827	49.0283	6.0768
99	32.3921	4074.1623	844.2263	2041	5666	6.4408	6.4034	103.9469	6.5832	131970.5466	3998	8233882.0000	687	851	67.3801	6.4566
100	23.6089	3954.6008	788.3241	2041	5361	5.5054	5.4600	96.2839	5.6900	93363.6399	3932	5825127.0000	498	830	110.8545	5.5367
101	28.2409	3601.5556	789.4880	2042	5005	6.2422	5.7604	146.3491	6.5344	101711.1130	3697	6345941.0000	155	855	144.4623	5.9249
102	19.1852	3460.7235	565.9730	2053	4408	4.9657	4.9192	110.8024	5.1269	66394.7020	3465	4142486.0000	367	916	122.9052	4.9374
103	24.2500	3365.8262	504.3525	2044	4334	5.5588	5.5545	42.6826	5.6970	81621.2024	3278	5092495.0000	804	946	126.8699	5.5704
104	33.9628	3556.6248	618.8139	2046	4957	6.5913	6.5606	44.4919	6.7432	120792.8947	3398	7536488.0000	188	46	39.6678	6.5832
105	18.8326	3223.6800	448.0057	2041	4099	4.9066	4.8870	38.8160	5.0640	60710.2705	3110	3787824.0000	613	22	143.1301	4.8108
106	30.8053	3722.0806	842.6679	2041	5296	6.4806	6.0523	58.5256	6.6462	114659.8947	3764	7153839.0000	398	172	40.3645	6.2006
107	13.3030	3296.2639	757.0235	2041	4403	4.1378	4.0935	66.0777	4.2839	43850.2867	3439	2735899.0000	597	157	34.1597	4.0512
108	56.1292	4245.7727	1218.4919	2042	6678	8.4947	8.4130	174.4906	8.6404	238311.6419	4251	14868696.0000	474	162	140.9469	8.4822
109	45.1502	3937.8026	1100.1679	2042	6038	7.7059	7.4601	28.8452	7.9467	177792.3900	4014	11092790.0000	366	233	59.3493	7.4694
110	39.9411	3947.9607	840.4912	2041	5711	7.2924	6.9737	48.6592	7.5389	157686.0349	3806	9838318.0000	962	282	49.0856	7.0721
111	31.8792	4087.7592	809.3721	2041	5688	6.3887	6.3533	6.7441	6.5344	130314.4159	3980	8130553.0000	433	407	35.5377	6.3300
112	15.1462	3253.2624	440.8410	2041	4020	4.4226	4.3605	88.0879	4.5734	49274.6200	3202	3074333.0000	344	457	48.3665	4.3044
113	37.0561	3979.3919	788.4030	2042	5655	6.9033	6.8346	68.0786	7.1302	147460.9117	3839	9200354.0000	145	506	73.4956	6.8364
114	26.4297	4002.2395	760.5861	2048	5445	5.8193	5.7827	78.3033	5.9664	105778.1849	3896	6599693.0000	697	524	72.7185	5.6970
115	32.9530	3701.8906	664.3242	2041	5167	6.4816	6.4733	72.2750	6.6438	121988.5483	3585	7611087.0000	48	556	59.0362	6.4566
116	23.0800	3568.8486	595.8442	2044	4713	5.4680	5.3742	75.0601	5.6049	82368.8485	3525	5139142.0000	146	582	71.5651	5.4438
117	25.5322	3664.2844	620.3682	2045	4866	5.7125	5.6908	108.7311	5.8648	93557.2230	3588	5837205.0000	889	584	122.6609	5.6970
118	33.0973	3759.6136	682.3404	2049	5140	6.5134	6.4699	63.7648	6.6631	124433.0195	3624	7763602.0000	100	676	51.1702	6.4566
119	36.9760	4104.4365	895.1266	2037	5887	6.9458	6.7781	24.7335	7.2174	151765.6590	4006	9468935.0000	413	707	21.6148	6.8364
120	30.5649	3968.2480	775.4714	2046	5557	6.2770	6.1998	52.8239	6.4318	121289.1296	3875	7567449.0000	344	731	36.1932	6.2034
121	24.9873	3714.7755	651.1875	2043	5004	5.6456	5.6353	120.7249	5.7864	92822.0304	3669	5791335.0000	668	731	100.0806	5.6970
122	33.4980	4031.0737	809.6688	2047	5643	6.5491	6.5125	139.1481	6.7110	135032.8393	3934	8424944.0000	736	751	125.7890	6.4566
123	30.3726	3530.7034	572.8379	2041	4748	6.2299	6.2074	103.9410	6.3980	107236.5493	3424	6690683.0000	118	794	117.0721	6.2034
124	25.1475	3491.5621	549.5236	2043	4546	5.6794	5.6377	107.4559	5.8291	87804.1608	3416	5478261.0000	462	930	124.3803	5.6970
125	23.7211	3146.5236	431.2873	2044	3979	5.5269	5.4646	85.8050	5.6533	74638.8763	3064	4656855.0000	233	930	124.0459	5.4438
126	15.2424	2932.2492	333.0693	2046	3579	4.4562	4.3551	59.7321	4.6083	44694.4680	2919	2788569.0000	810	979	52.8153	4.4310
127	18.3518	3052.5703	377.9816	2050	3778	4.8486	4.8191	173.1371	5.0163	56020.0560	2987	3495193.0000	781	14	137.0454	4.8108
128	26.2534	3750.4646	671.6647	2041	5149	5.8257	5.7378	0.2547	5.9717	98462.6100	3669	6143261.0000	419	84	147.9946	5.6970
129	22.6472	3382.8401	490.7936	2045	4312	5.4124	5.3277	141.8460	5.5834	76611.8594	3329	4779953.0000	877	85	122.9694	5.3172
130	30.0360	3501.6062	715.2788	2041	4787	6.3976	5.9777	125.6620	6.5356	105174.2115	3549	6562010.0000	988	87	98.9149	6.0581
131	23.0319	3205.7314	451.9047	2042	4118	5.4700	5.3611	54.1934	5.6220	73833.9790	3135	4606636.0000	76	175	35.8377	5.4438
132	28.0806	3423.8653	756.3735	2013	4807	6.1690	5.7956	126.5182	6.3980	96144.2130	3563	5998612.0000	965	161	152.9279	5.8847
133	34.1070	4098.2979	838.8353	2041	5708	6.6041	6.5757	142.8241	6.7527	139780.8018	4004	8721178.0000	582	152	120.4111	6.5832
134	31.6868	3531.6859	597.5838	2044	4778	6.3888	6.3150	51.5231	6.5650	111907.9953	3405	6982143.0000	32	232	50.4774	6.3300
135	27.2792	3611.2309	621.7147	2045	4917	5.9171	5.8699	29.2916	6.0676	98511.5587	3496	6146315.0000	156	241	23.3556	5.9502
136	30.8855	3874.9953	965.6649	2041	5538	6.4427	6.1038	148.5900	6.6462	119681.0181	4006	7467116.0000	712	423	139.6355	6.2501
137	28.8820	4098.6665	843.1749	2041	5606	6.0996	6.0288	89.0776	6.2292	118377.6580	4062	7385797.0000	577	424	127.5686	6.0768
138	32.5363	4042.4685	812.5845	2045	5578	6.4505	6.4223	51.6034	6.6342	131527.0429	3960	8206211.0000	288	470	41.9059	6.4566
139	28.8980	3704.8026	638.5615	2042	5021	6.0907	6.0410	41.2983	6.2344	107061.4622	3628	6679759.0000	187	482	29.1676	6.0768
140	22.9197	3748.8112	677.4534	2042	4929	5.4295	5.3747	6.3910	5.5762	85921.5260	3772	5360800.0000	451	561	129.4725	5.4240
141	30.9496	3944.8457	994.4848	2041	5589	6.3404	6.2151	67.0906	6.6269	122091.2861	4064	7617497.0000	640	609	83.4181	6.3300
142	32.3280	3698.8151	1010.8243	2033	5358	6.6455	6.1938	80.4168	6.9307	119575.1388	3947	7460510.0000	805	623	80.5377	6.3255
143	31.7189	3892.8060	733.2508	2041	5300	6.3835	6.3266	132.4573	6.5356	123475.5382	3815	7703863.0000	943	572	121.5348	6.3300
144	32.9210	3859.9800	1063.3766	2041	5607	6.5408	6.4084	15.2157	6.7301	127074.3435	4070	7928399.0000	712	609	163.6105	6.5257
145	28.3851	3998.8306	933.2462	2041	5602	6.1472	5.8793	57.5237	6.3300	113507.3397	4070	7081929.0000	567	660	53.1301	5.9502
146	19.5699	3426.2981	595.4868	2044	4398	5.0878	4.8974	135.7122	5.3831	67052.2242	3507	4183510.0000	773	710	131.1859	4.9374
147	43.6115	4065.8379	1028.1469	2041	6066	7.6105	7.2962	136.5956	7.7733	177317.2476	4068	11063145.0000	811	741	142.9435	7.4441
148	17.5504	3258.0155	436.3041	2043	3966	4.7417	4.7126	49.0009	4.8901	57179.4068	3229	3567527.0000	648	857	68.7495	4.6842
149	29.8116	3506.3952	577.3778	2041	4632	6.1821	6.1399	86.5291	6.3300	104531.2585	3422	6521895.0000	165	835	126.8699	6.2034
150	31.2701	3791.5018	689.2140	2043	5120	6.3385	6.2813	84.2575	6.4851	118560.7429	3721	7397220.0000	352	907	51.3402	6.3300
151	21.1085	3280.5566	455.4333	2042	4067	5.1988	5.1697	127.4899	5.3368	69247.7525	3243	4320493.0000	507	75	157.6938	5.1906
152	37.6331	3674.4928	754.2684	2041	5247	7.0734	6.7741	35.7297	7.2550	138282.7047	3598	8627709.0000	33	113	29.2488	6.8364
153	39.9732	3702.6006	885.8618	2037	5323	7.3587	6.9164	45.0910	7.5728	148004.7651	3763	9234286.0000	179	140	51.7890	7.0577
154	26.5900	3630.3665	711.6786	2042	4848	5.9289	5.7103	32.2281	6.0979	96531.5394	3675	6022778.0000	245	194	48.3665	5.8050
155	35.7098	3676.1275	811.0656	2026	5138	7.0579	6.4421	45.1296	7.2705	131273.8206	3712	8190412.0000	118	207	54.9262	6.5350
156	28.5775	3500.4907	653.1619	2041	4688	6.0772	5.9873	62.3384	6.3717	100035.1560	3535	6241375.0000	70	269	49.0283	6.0581
157	27.1831	3731.6710	666.3695	2046	5017	5.9266	5.8398	125.9527	6.0795	101438.2086	3673	6328914.0000	937	299	121.3730	5.8236
158	25.9649	3560.0253	596.1220	2041	4738	5.7977	5.7022	65.5557	5.9516	92435.8580	3480	5767241.0000	43	346	60.7086	5.6970
159	49.3975	4220.8300	1235.8849	2042	6577	7.9460	7.9153	91.4162	8.1123	208498.4688	4276	13008598.0000	553	444	67.0362	7.9758
160	21.5413	3505.4710	537.8943	2043	4400	5.2403	5.2339	32.9941	5.3980	75512.3562	3480	4711353.0000	421	445	39.2894	5.1906
161	19.9225	3314.6814	507.6215	2041	4164	5.1019	4.9719	81.3156	5.2337	66036.6903	3334	4120149.0000	123	523	57.8477	4.9374
162	12.3414	2921.6416	309.2844	2050	3409	3.9691	3.9590	137.7373	4.1082	36057.0370	2917	2249664.0000	268	639	123.6901	3.9246
163	43.1467	4058.4993	1126.5389	2042	6067	7.4685	7.3557	48.8626	7.6643	175110.7883	4169	10925480.0000	572	737	59.1986	7.4505
164	23.4967	3644.9386	623.7290	2042	4689	5.4871	5.4523	125.6508	5.6533	85643.9255	3650	5343480.0000	410	707	124.0459	5.4438
165	39.8770	3781.8131	1054.7132	2041	5571	7.2708	6.9831	97.5213	7.4124	150807.4564	4009	9409151.0000	757	724	97.8533	6.9630
166	26.0932	3520.8655	553.9362	2041	4529	5.7743	5.7536	118.3964	5.9341	91870.5274	3470	5731969.0000	867	749	146.3099	5.6970
167	28.9782	3504.3855	556.3616	2041	4612	6.1014	6.0471	109.0098	6.2536	101550.6432	3435	6335929.0000	276	893	58.2405	6.0768
168	23.2563	2796.9173	311.6400	2043	3433	5.4522	5.4309	89.5251	5.5963	65045.8232	2706	4058327.0000	11	876	127.6476	5.4438
169	31.6708	3595.5030	733.4742	2042	4905	6.5229	6.1820	48.6522	6.7420	113872.5318	3663	7104714.0000	619	960	34.2869	6.3379
170	39.8289	3644.9227	894.2270	2041	5286	7.3319	6.9166	108.1533	7.5717	145173.4162	3774	9057633.0000	717	927	110.5560	6.9630
171	34.7642	3660.7888	633.7704	2041	4924	6.6762	6.6300	123.9564	6.8411	127264.3044	3575	7940251.0000	347	932	128.9910	6.7098
172	33.4018	3387.6272	516.7338	2042	4451	6.5308	6.5120	144.6328	6.6895	113152.9022	3284	7059815.0000	906	965	119.4759	6.4566
173	35.7098	3802.1665	983.4048	2037	5447	6.8248	6.6621	124.7461	7.0032	135774.6514	3973	8471227.0000	633	246	139.3987	6.7752
174	33.3858	3910.8056	952.3250	2041	5595	6.6357	6.4059	23.5889	6.8059	130565.3303	3970	8146208.0000	784	330	18.4349	6.4566
175	31.8151	3590.0605	930.3345	2041	5083	6.3823	6.3469	5.8117	6.5686	114218.0259	3865	7126270.0000	475	321	152.4472	6.4539
176	42.9544	3793.2090	1078.9941	2041	5689	7.5790	7.2162	59.2147	7.7733	162934.8323	4028	10165800.0000	312	482	52.9435	7.3428
177	21.0284	3134.5343	392.8236	2041	3889	5.2277	5.1216	76.8337	5.3861	65914.2384	3077	4112509.0000	30	525	66.4477	5.0640
178	45.2944	4180.2622	1017.3164	2041	6193	7.6888	7.5006	99.3282	7.8584	189342.4787	4137	11813421.0000	836	630	87.2298	7.5535
179	36.6394	3710.6881	825.3090	2041	5255	7.0148	6.6504	73.3594	7.2062	135957.4638	3782	8482633.0000	226	623	71.5651	6.7580
180	21.4291	3412.6208	539.7906	2041	4266	5.2945	5.1534	91.2356	5.4128	73129.3674	3452	4562674.0000	376	644	100.7843	5.1906
181	35.3572	3766.8354	679.7029	2041	5076	6.7762	6.6436	77.6613	6.9076	133184.7604	3694	8309639.0000	335	793	48.7153	6.7098
182	30.2123	3514.9019	559.2125	2042	4549	6.2366	6.1680	89.4116	6.3717	106193.2554	3488	6625590.0000	942	784	130.9717	6.0768
183	5.3052	2318.7734	105.0474	2043	2513	2.6253	2.5730	67.5570	2.7388	12301.5173	2321	767514.0000	255	824	33.6901	2.5320
184	34.7962	3769.4169	666.8971	2041	5040	6.6738	6.6385	176.1572	6.8141	131161.4982	3694	8183404.0000	554	825	144.8336	6.5832
185	28.5294	3272.9022	460.4745	2041	4205	6.0392	6.0149	72.8940	6.2151	93373.8817	3174	5825766.0000	216	914	56.6336	5.9502
186	28.5935	3379.4709	522.2186	2042	4280	6.1220	5.9468	100.8068	6.2856	96630.8794	3379	6028976.0000	909	902	108.7999	5.9502
187	19.7141	2942.0333	324.3664	2047	3588	5.0543	4.9662	80.9638	5.2199	57999.6105	2926	3618701.0000	913	1007	67.1663	4.9374
188	47.1055	4200.9476	879.5143	2041	6102	7.7626	7.7263	32.6851	7.9315	197887.8944	4013	12346585.0000	525	160	24.5196	7.7226
189	33.0011	3430.8096	538.7179	2044	4600	6.5279	6.4367	54.6248	6.6631	113220.5713	3341	7064037.0000	24	245	38.8298	6.4566
190	22.8716	3209.0918	433.7505	2041	4061	5.4152	5.3777	118.1452	5.5618	73397.0307	3130	4579374.0000	858	213	131.3086	5.3172
191	30.9816	3786.6358	694.6356	2041	5042	6.3520	6.2101	38.8820	6.5796	117316.1406	3753	7319567.0000	475	283	30.0184	6.2034
192	37.2645	4115.4989	896.0221	2041	5897	6.9851	6.7925	29.2167	7.2649	153362.0222	3995	9568535.0000	407	329	41.4677	6.8364
193	22.1664	3442.1316	517.6473	2046	4284	5.3214	5.3037	168.6770	5.4541	76299.5588	3441	4760468.0000	635	355	158.1986	5.3172
194	27.8402	3839.9269	707.7669	2042	5110	5.9730	5.9346	43.0674	6.1241	106904.2942	3788	6669953.0000	536	438	60.2551	5.9502
195	8.4626	2159.2386	60.9795	2047	2320	3.3539	3.2126	35.2451	3.5107	18272.8775	2149	1140078.0000	299	432	25.6410	3.2916
196	36.4952	4077.9772	831.0787	2041	5642	6.8290	6.8044	82.2302	6.9906	148826.4754	4006	9285554.0000	694	486	35.4171	6.8364
197	26.6702	3661.5889	664.6391	2041	4796	5.8847	5.7704	67.6976	6.0795	97655.1804	3701	6092884.0000	667	596	58.6270	5.8236
198	19.8744	3142.6355	391.6474	2044	3817	5.0462	5.0146	95.7663	5.2091	62457.9998	3126	3896868.0000	133	559	115.9423	5.0640
199	21.2047	3329.2910	465.8032	2047	4114	5.2208	5.1713	57.9920	5.3428	70596.6314	3317	4404652.0000	440	613	36.3268	5.1906
200	40.1655	4065.2785	940.8811	2041	5831	7.3514	6.9565	78.9783	7.5303	163284.0448	4064	10187588.0000	638	668	63.0042	7.0896
201	23.7691	3189.6231	408.6549	2042	3930	5.5142	5.4884	115.0061	5.6688	75814.6074	3144	4730211.0000	934	669	113.7026	5.5503
202	24.9392	3293.0463	700.8532	2038	4360	5.7262	5.5453	3.5806	6.0185	82125.8358	3507	5123980.0000	141	724	22.2490	5.5704
203	49.3174	4219.0348	962.4243	2042	6210	8.0348	7.8151	98.5392	8.1861	208071.6820	4099	12981970.0000	565	767	121.7236	7.9203
204	25.9329	2322.0420	207.0451	2042	2937	5.7909	5.7019	176.7400	5.9341	60217.2572	2259	3757064.0000	219	814	168.9298	5.6970
205	29.1865	3547.1752	578.2080	2050	4642	6.1107	6.0814	98.9413	6.2549	103529.7009	3483	6459406.0000	343	895	125.9421	6.0768
206	22.0702	3160.2534	400.1253	2048	3885	5.3313	5.2709	88.0326	5.4673	69747.4334	3118	4351669.0000	437	926	132.1844	5.1906
207	30.9175	3325.0389	475.5774	2041	4226	6.3150	6.2336	93.7226	6.4318	102801.9452	3285	6414000.0000	261	940	100.2040	6.2034
208	39.6687	3474.4493	574.3083	2042	4580	7.2089	7.0063	108.8212	7.3744	137826.7635	3429	8599262.0000	86	946	101.8887	6.9630
209	20.0507	2877.7722	284.1696	2048	3387	5.0722	5.0332	177.6713	5.2337	57701.3663	2823	3600093.0000	704	970	122.1523	4.9374
210	25.5963	3308.2379	491.0381	2048	4276	5.7678	5.6504	43.8433	5.9516	84678.6707	3277	5283256.0000	409	128	51.9112	5.6970
211	22.0862	3118.3512	396.2460	2041	3859	5.3330	5.2730	159.0343	5.4776	68872.6232	3070	4297088.0000	715	117	146.3099	5.3172
212	21.3329	3000.7686	340.7570	2041	3658	5.2336	5.1900	142.1058	5.3861	64015.1752	2947	3994023.0000	831	123	156.4477	5.1906
213	28.8019	3392.3912	509.1867	2042	4388	6.1178	5.9943	26.5988	6.2766	97707.1584	3321	6096127.0000	230	234	41.7295	5.9502
214	28.3531	3516.9565	555.5493	2043	4624	6.0252	5.9915	113.1511	6.1879	99716.5405	3437	6221496.0000	803	262	149.2373	5.9502
215	28.9461	3599.1002	586.1727	2041	4743	6.0779	6.0638	45.9453	6.2151	104179.9304	3548	6499975.0000	587	267	123.3664	6.0768
216	35.1969	3329.1357	511.8356	2041	4473	6.7214	6.6674	36.5111	6.8878	117175.3368	3219	7310782.0000	24	324	36.0274	6.7098
217	27.2792	3275.8490	449.7694	2042	4172	5.9435	5.8439	135.7564	6.1110	89362.6023	3226	5575495.0000	985	308	129.9575	5.8236
218	40.3258	4009.6021	781.5568	2044	5669	7.1817	7.1493	26.8461	7.3494	161690.4223	3875	10088159.0000	516	372	42.2073	7.0896
219	21.9740	3262.9912	443.1491	2046	4048	5.3184	5.2606	104.5180	5.4541	71701.0871	3211	4473561.0000	818	420	68.1986	5.3172
220	34.2353	3407.2093	523.8050	2062	4584	6.6392	6.5655	62.2034	6.7858	116646.6938	3295	7277799.0000	85	452	53.3439	6.5832
221	19.5859	3164.0393	403.1268	2053	3866	5.0129	4.9747	76.7265	5.1534	61970.5640	3117	3866456.0000	519	498	62.1759	4.9374
222	37.9537	3570.4405	585.2592	2043	4815	6.9666	6.9365	87.4949	7.1358	135511.4117	3454	8454803.0000	136	612	64.7989	6.9630
223	37.8896	3827.2242	700.7635	2042	5193	6.9689	6.9226	110.4533	7.1009	145011.9366	3737	9047558.0000	845	567	101.3099	6.9630
224	192.6535	5255.4713	1391.8706	2043	8354	15.6952	15.6286	147.8511	15.8817	1012484.8022	5213	63170765.0000	307	760	81.2886	15.6985
225	23.9134	3339.5409	498.7188	2041	4204	5.5635	5.4727	119.1590	5.6970	79859.7534	3354	4982595.0000	817	673	126.8699	5.4438
226	27.6158	3507.9216	553.3814	2041	4561	5.9522	5.9073	96.9267	6.1097	96874.0683	3426	6044149.0000	503	675	124.0193	5.9502
227	24.9392	3275.3368	456.8423	2041	4089	5.6561	5.6140	92.4007	5.7988	81684.1754	3269	5096424.0000	796	787	143.8807	5.5704
228	25.0193	2904.6291	316.7180	2044	3581	5.6818	5.6066	99.3634	5.8319	72671.8074	2849	4534126.0000	963	943	117.1213	5.6970
229	18.1434	2681.3057	232.3920	2042	3144	4.8284	4.7844	86.7524	4.9827	48648.0154	2639	3035238.0000	229	965	117.2161	4.8108
230	28.5294	2978.5084	351.9333	2041	3799	6.0613	5.9929	67.7365	6.1931	84975.0076	2903	5301745.0000	132	1014	40.8554	5.9502
